# [0] Wavenumber, $k$ [$h$/Mpc]# [1] $P(k)$, [Mpc$^3 h^{-3}$]# [2] $T(k)$, [Mpc$^3 h^{-3}$]# [3] $\Delta(k)$# [4] $\Delta^2_{\rm halofit}(k)$# [5] $P_{\rm halofit}(k)$ [Mpc$^3 h^{-3}$]9.948440815646671230e-09 5.808237767239684407e-02 1.782820588283079360e+03 2.897208210165205901e-27 2.897208210165205901e-27 5.808237767239685795e-02
1.045850828349686995e-08 6.095958674097908675e-02 1.782819540526652645e+03 3.532819974895448602e-27 3.532819974895448602e-27 6.095958674097910063e-02
1.099472746964949198e-08 6.397932323967144008e-02 1.782818492770841431e+03 4.307877125030164775e-27 4.307877125030164775e-27 6.397932323967144008e-02
1.155843920137401752e-08 6.714864750640889279e-02 1.782817445015645944e+03 5.252972259054146580e-27 5.252972259054146580e-27 6.714864750640889279e-02
1.215105305162408835e-08 7.047496962493830786e-02 1.782816397261066413e+03 6.405409614416340161e-27 6.405409614416340161e-27 7.047496962493830786e-02
1.277405086370409768e-08 7.396606675007022513e-02 1.782815349507102610e+03 7.810677518377953971e-27 7.810677518377953971e-27 7.396606675007022513e-02
1.342899045664931297e-08 7.763010129116650060e-02 1.782814301753754535e+03 9.524243876424396416e-27 9.524243876424396416e-27 7.763010129116650060e-02
1.411750952058489602e-08 8.147563999637781607e-02 1.782813254001022415e+03 1.161374556870012151e-26 1.161374556870012151e-26 8.147563999637781607e-02
1.484132971180425237e-08 8.551167398225106853e-02 1.782812206248905568e+03 1.416165817303054773e-26 1.416165817303054773e-26 8.551167398225106853e-02
1.560226095780652959e-08 8.974763975553770590e-02 1.782811158497404904e+03 1.726855139226285128e-26 1.726855139226285128e-26 8.974763975553773365e-02
1.640220598305811655e-08 9.419344127635258246e-02 1.782810110746519968e+03 2.105705868223259278e-26 2.105705868223259278e-26 9.419344127635256858e-02
1.724316506679489793e-08 9.885947311426898643e-02 1.782809062996250532e+03 2.567671776716902065e-26 2.567671776716902065e-26 9.885947311426898643e-02
1.812724104476224508e-08 1.037566447514903234e-01 1.782808015246597279e+03 3.130987310450672846e-26 3.130987310450672846e-26 1.037566447514903095e-01
1.905664456739967953e-08 1.088964060899199199e-01 1.782806967497559299e+03 3.817887327771161230e-26 3.817887327771161230e-26 1.088964060899199338e-01
2.003369962761847816e-08 1.142907742217678380e-01 1.782805919749137502e+03 4.655484740836439311e-26 4.655484740836439311e-26 1.142907742217678241e-01
2.106084937199443792e-08 1.199523615262840098e-01 1.782804872001331205e+03 5.676840700485964853e-26 5.676840700485964853e-26 1.199523615262840098e-01
2.214066220990690501e-08 1.258944051583114621e-01 1.782803824254140636e+03 6.922269566477822289e-26 6.922269566477822289e-26 1.258944051583114898e-01
2.327583823590005298e-08 1.321307979976047431e-01 1.782802776507566023e+03 8.440930172108419850e-26 8.440930172108419850e-26 1.321307979976047431e-01
2.446921598132564822e-08 1.386761211312750874e-01 1.782801728761607137e+03 1.029276619267273191e-25 1.029276619267273191e-25 1.386761211312750874e-01
2.572377951214995982e-08 1.455456779453091487e-01 1.782800681016263979e+03 1.255087220684402225e-25 1.255087220684402225e-25 1.455456779453091487e-01
2.704266589067301290e-08 1.527555299048684589e-01 1.782799633271536550e+03 1.530437884275162791e-25 1.530437884275162791e-25 1.527555299048684589e-01
2.842917301981834574e-08 1.603225341070267373e-01 1.782798585527424848e+03 1.866197088954030079e-25 1.866197088954030079e-25 1.603225341070267373e-01
2.988676788960813527e-08 1.682643826937460785e-01 1.782797537783928874e+03 2.275617723923470361e-25 2.275617723923470361e-25 1.682643826937461062e-01
3.141909524644411571e-08 1.765996442172411696e-01 1.782796490041048628e+03 2.774860198896277565e-25 2.774860198896277565e-25 1.765996442172411973e-01
3.302998670687205708e-08 1.853478070544474499e-01 1.782795442298784110e+03 3.383630318251835778e-25 3.383630318251835778e-25 1.853478070544474221e-01
3.472347033861891412e-08 1.945293249720985718e-01 1.782794394557135547e+03 4.125957096918589585e-25 4.125957096918589585e-25 1.945293249720985163e-01
3.650378073286028096e-08 2.041656649489465847e-01 1.782793346816102712e+03 5.031141219472263142e-25 5.031141219472263142e-25 2.041656649489465292e-01
3.837536959290403761e-08 2.142793573669380114e-01 1.782792299075685378e+03 6.134911579467717941e-25 6.134911579467717941e-25 2.142793573669380114e-01
4.034291686576738941e-08 2.248940486886937262e-01 1.782791251335884226e+03 7.480835549242442022e-25 7.480835549242442022e-25 2.248940486886937540e-01
4.241134244448210564e-08 2.360345567444581127e-01 1.782790203596698348e+03 9.122038645529259871e-25 9.122038645529259871e-25 2.360345567444581405e-01
4.458581847038973629e-08 2.477269287577802959e-01 1.782789155858128424e+03 1.112330146850451828e-24 1.112330146850451828e-24 2.477269287577802959e-01
4.687178226618903831e-08 2.599985022455965633e-01 1.782788108120174229e+03 1.356361668341257233e-24 1.356361668341257233e-24 2.599985022455965633e-01
4.927494993207486636e-08 2.728779689351005788e-01 1.782787060382835762e+03 1.653930697243630214e-24 1.653930697243630214e-24 2.728779689351005788e-01
5.180133063896607448e-08 2.863954418468457330e-01 1.782786012646113250e+03 2.016782702677026501e-24 2.016782702677026501e-24 2.863954418468457330e-01
5.445724165456282517e-08 3.005825257009210327e-01 1.782784964910006238e+03 2.459239964888386842e-24 2.459239964888386842e-24 3.005825257009210327e-01
5.724932413980639051e-08 3.154723908108173491e-01 1.782783917174515182e+03 2.998766895846764868e-24 2.998766895846764868e-24 3.154723908108173491e-01
6.018455975524068256e-08 3.310998506377516581e-01 1.782782869439639853e+03 3.656659384207174066e-24 3.656659384207174066e-24 3.310998506377516581e-01
6.327028811880025786e-08 3.475014431867753384e-01 1.782781821705380025e+03 4.458885374061315463e-24 4.458885374061315463e-24 3.475014431867752829e-01
6.651422515867811463e-08 3.647155164349779599e-01 1.782780773971736153e+03 5.437109856303609201e-24 5.437109856303609201e-24 3.647155164349779599e-01
6.992448240716530936e-08 3.827823179915207930e-01 1.782779726238708008e+03 6.629944730466920190e-24 6.629944730466920190e-24 3.827823179915207930e-01
7.350958728370673588e-08 4.017440891991335139e-01 1.782778678506295819e+03 8.084472870836841943e-24 8.084472870836841943e-24 4.017440891991334584e-01
7.727850441789147412e-08 4.216451638970861171e-01 1.782777630774499130e+03 9.858106553882830348e-24 9.858106553882830348e-24 4.216451638970861726e-01
8.124065806569624218e-08 4.425320720765541505e-01 1.782776583043318169e+03 1.202085360175721405e-23 1.202085360175721405e-23 4.425320720765542060e-01
8.540595567503422470e-08 4.644536486707274148e-01 1.782775535312752936e+03 1.465808068974102729e-23 1.465808068974102729e-23 4.644536486707273593e-01
8.978481265953541414e-08 4.874611477340209942e-01 1.782774487582803658e+03 1.787388288927757648e-23 1.787388288927757648e-23 4.874611477340210497e-01
9.438817844250578272e-08 5.116083622773465178e-01 1.782773439853469654e+03 2.179519244720803122e-23 2.179519244720803122e-23 5.116083622773465178e-01
9.922756383618892362e-08 5.369517500396290277e-01 1.782772392124751832e+03 2.657678898051869897e-23 2.657678898051869897e-23 5.369517500396289167e-01
1.043150698247923140e-07 5.635505654896263428e-01 1.782771344396649738e+03 3.240740884605039067e-23 3.240740884605039067e-23 5.635505654896263428e-01
1.096634178232509997e-07 5.914669983666844821e-01 1.782770296669163372e+03 3.951719483060620106e-23 3.951719483060620106e-23 5.914669983666845932e-01
1.152859814873911766e-07 6.207663190843433210e-01 1.782769248942292506e+03 4.818678021122963707e-23 4.818678021122963707e-23 6.207663190843434320e-01
1.211968201550358074e-07 6.515170313367568689e-01 1.782768201216037596e+03 5.875836574632013971e-23 5.875836574632013971e-23 6.515170313367568689e-01
1.274107140016724103e-07 6.837910322647314798e-01 1.782767153490398414e+03 7.164922682204313562e-23 7.164922682204313562e-23 6.837910322647314798e-01
1.339432009985902840e-07 7.176637805558587768e-01 1.782766105765374959e+03 8.736818390014673568e-23 8.736818390014673568e-23 7.176637805558587768e-01
1.408106157659022612e-07 7.532144728717770077e-01 1.782765058040967233e+03 1.065356863789838016e-22 1.065356863789838016e-22 7.532144728717770077e-01
1.480301304176032352e-07 7.905262290150518734e-01 1.782764010317175234e+03 1.299083026060489053e-22 1.299083026060489053e-22 7.905262290150516513e-01
1.556197975007996717e-07 8.296862862686165130e-01 1.782762962593998964e+03 1.584085826973553700e-22 1.584085826973553700e-22 8.296862862686166240e-01
1.635985951364806400e-07 8.707862033621429632e-01 1.782761914871438648e+03 1.931614728912367147e-22 1.931614728912367147e-22 8.707862033621428521e-01
1.719864744747053890e-07 9.139220745422330650e-01 1.782760867149493833e+03 2.355387187624579472e-22 2.355387187624579472e-22 9.139220745422329539e-01
1.808044095828707509e-07 9.591947542469427823e-01 1.782759819428164747e+03 2.872130099541047035e-22 2.872130099541047035e-22 9.591947542469428933e-01
1.900744498918043819e-07 1.006710092909936183e+00 1.782758771707451615e+03 3.502240035961542252e-22 3.502240035961542252e-22 1.006710092909936405e+00
1.998197753308269582e-07 1.056579184445599617e+00 1.782757723987354211e+03 4.270588324481503783e-22 4.270588324481503783e-22 1.056579184445599395e+00
2.100647542896494309e-07 1.108918625993751794e+00 1.782756676267872308e+03 5.207502755358835885e-22 5.207502755358835885e-22 1.108918625993751794e+00
2.208350045520400052e-07 1.163850790531246071e+00 1.782755628549006360e+03 6.349964662155133660e-22 6.349964662155133660e-22 1.163850790531245849e+00
2.321574573536275162e-07 1.221504112987852553e+00 1.782754580830755913e+03 7.743068627112127803e-22 7.743068627112127803e-22 1.221504112987852775e+00
2.440604247240182258e-07 1.282013390535376551e+00 1.782753533113121421e+03 9.441802427892529758e-22 9.441802427892529758e-22 1.282013390535376551e+00
2.565736702816169077e-07 1.345520097752103350e+00 1.782752485396102657e+03 1.151321748269276999e-21 1.151321748269276999e-21 1.345520097752103572e+00
2.697284836581760694e-07 1.412172717399453603e+00 1.782751437679699620e+03 1.403907546425638728e-21 1.403907546425638728e-21 1.412172717399453603e+00
2.835577587391734652e-07 1.482127087584217628e+00 1.782750389963912085e+03 1.711907554837468712e-21 1.711907554837468712e-21 1.482127087584217850e+00
2.980960759156591914e-07 1.555546766118061974e+00 1.782749342248740504e+03 2.087478968092311074e-21 2.087478968092311074e-21 1.555546766118062196e+00
3.133797885532457531e-07 1.632603412926198372e+00 1.782748294534184879e+03 2.545446119397173423e-21 2.545446119397173423e-21 1.632603412926198150e+00
3.294471138944575128e-07 1.713477191399319421e+00 1.782747246820244527e+03 3.103885617911341772e-21 3.103885617911341772e-21 1.713477191399319199e+00
3.463382286217434590e-07 1.798357189627179720e+00 1.782746199106920130e+03 3.784839857996473449e-21 3.784839857996473449e-21 1.798357189627180164e+00
3.640953693201105532e-07 1.887441862498696832e+00 1.782745151394211462e+03 4.615187063600075935e-21 4.615187063600075935e-21 1.887441862498696610e+00
3.827629380905862937e-07 1.980939495702233044e+00 1.782744103682118748e+03 5.627702209650888528e-21 5.627702209650888528e-21 1.980939495702233044e+00
4.023876135785991689e-07 2.079068692710913435e+00 1.782743055970641535e+03 6.862350696529407668e-21 6.862350696529407668e-21 2.079068692710913435e+00
4.230184676949061308e-07 2.182058885891591693e+00 1.782742008259780050e+03 8.367865840768951965e-21 8.367865840768951965e-21 2.182058885891591693e+00
4.447070883209299721e-07 2.290150872932463333e+00 1.782740960549534293e+03 1.020367244776934414e-20 1.020367244776934414e-20 2.290150872932463333e+00
4.675077083053337577e-07 2.403597379843531279e+00 1.782739912839904491e+03 1.244223239265028894e-20 1.244223239265028894e-20 2.403597379843531723e+00
4.914773410743910330e-07 2.522663651846251742e+00 1.782738865130890190e+03 1.517190479262781334e-20 1.517190479262781334e-20 2.522663651846251298e+00
5.166759231952484785e-07 2.647628073533902615e+00 1.782737817422491617e+03 1.850043366595013368e-20 1.850043366595013368e-20 2.647628073533902615e+00
5.431664642485636684e-07 2.778782819752650735e+00 1.782736769714708771e+03 2.255920074020843750e-20 2.255920074020843750e-20 2.778782819752650735e+00
5.710152043852764370e-07 2.916434538725107384e+00 1.782735722007541654e+03 2.750841127436264939e-20 2.750841127436264939e-20 2.916434538725106940e+00
6.002917799614893647e-07 3.060905069013577062e+00 1.782734674300990491e+03 3.354341758618927606e-20 3.354341758618927606e-20 3.060905069013577950e+00
6.310693976656303946e-07 3.212532191999291964e+00 1.782733626595055057e+03 4.090242988369532914e-20 4.090242988369532914e-20 3.212532191999291520e+00
6.634250175733048092e-07 3.371670421636979054e+00 1.782732578889735123e+03 4.987591875788574532e-20 4.987591875788574532e-20 3.371670421636978610e+00
6.974395455875716885e-07 3.538691833331264913e+00 1.782731531185030917e+03 6.081808046653086274e-20 6.081808046653086274e-20 3.538691833331264469e+00
7.331980357458429965e-07 3.713986933872875706e+00 1.782730483480942667e+03 7.416081755984916730e-20 7.416081755984916730e-20 3.713986933872876151e+00
7.707899028992801601e-07 3.897965574468599481e+00 1.782729435777469917e+03 9.043078668311261390e-20 9.043078668311261390e-20 3.897965574468599925e+00
8.103091462964959756e-07 4.091057908999738757e+00 1.782728388074612894e+03 1.102701864569796729e-19 1.102701864569796729e-19 4.091057908999738757e+00
8.518545846306379992e-07 4.293715399749522099e+00 1.782727340372371827e+03 1.344621059625015908e-19 1.344621059625015908e-19 4.293715399749522987e+00
8.955301031375940196e-07 4.506411872950922159e+00 1.782726292670746489e+03 1.639614343712448124e-19 1.639614343712448124e-19 4.506411872950922159e+00
9.414449133631929834e-07 4.729644626622834025e+00 1.782725244969736877e+03 1.999325517672107159e-19 1.999325517672107159e-19 4.729644626622834025e+00
9.897138262489554719e-07 4.963935593284785952e+00 1.782724197269342767e+03 2.437952888704342343e-19 2.437952888704342343e-19 4.963935593284786840e+00
1.040457539219250091e-06 5.209832560268710111e+00 1.782723149569564384e+03 2.972809697573526956e-19 2.972809697573526956e-19 5.209832560268709223e+00
1.093802937987721706e-06 5.467910450480906626e+00 1.782722101870401957e+03 3.625007496631309873e-19 3.625007496631309873e-19 5.467910450480907514e+00
1.149883413837669279e-06 5.738772666608742412e+00 1.782721054171855258e+03 4.420289452553561427e-19 4.420289452553561427e-19 5.738772666608742412e+00
1.208839197169732872e-06 6.023052501914891721e+00 1.782720006473924059e+03 5.390046465424873100e-19 5.390046465424873100e-19 6.023052501914891721e+00
1.270817708150938562e-06 6.321414620917678917e+00 1.782718958776608815e+03 6.572556211823579704e-19 6.572556211823579704e-19 6.321414620917678917e+00
1.335973925341904388e-06 6.634556613419415605e+00 1.782717911079909072e+03 8.014494018684790724e-19 8.014494018684790724e-19 6.634556613419415605e+00
1.404470773223965279e-06 6.963210625516177643e+00 1.782716863383825284e+03 9.772775204263005144e-19 9.772775204263005144e-19 6.963210625516176755e+00
1.476479529595241322e-06 7.308145071402414317e+00 1.782715815688356997e+03 1.191680160598971001e-18 1.191680160598971001e-18 7.308145071402414317e+00
1.552180253854346638e-06 7.670166429972703703e+00 1.782714767993504665e+03 1.453120096884786056e-18 1.453120096884786056e-18 7.670166429972704591e+00
1.631762237242675479e-06 8.050121130421208804e+00 1.782713720299267834e+03 1.771916732178475527e-18 1.771916732178475527e-18 8.050121130421208804e+00
1.715424476171102536e-06 8.448897531247528292e+00 1.782712672605646958e+03 2.160653419152997291e-18 2.160653419152997291e-18 8.448897531247528292e+00
1.803376169814662967e-06 8.867427997295932229e+00 1.782711624912641582e+03 2.634674142931065340e-18 2.634674142931065340e-18 8.867427997295932229e+00
1.895837243219456938e-06 9.306691079684256351e+00 1.782710577220252162e+03 3.212689169811739425e-18 3.212689169811739425e-18 9.306691079684256351e+00
1.993038897229818866e-06 9.767713803719306753e+00 1.782709529528478242e+03 3.917513567861246024e-18 3.917513567861246024e-18 9.767713803719306753e+00
2.095224186610854891e-06 1.025157407014798672e+01 1.782708481837320278e+03 4.776967749816973517e-18 4.776967749816973517e-18 1.025157407014798849e+01
2.202648627811958361e-06 1.075940317535849999e+01 1.782707434146777814e+03 5.824975584002799349e-18 5.824975584002799349e-18 1.075940317535849999e+01
2.315580837891024191e-06 1.129238845642398559e+01 1.782706386456851305e+03 7.102903417241778014e-18 7.102903417241778014e-18 1.129238845642398559e+01
2.434303206197011092e-06 1.185177606717287091e+01 1.782705338767540297e+03 8.661192862888516064e-18 8.661192862888516064e-18 1.185177606717287091e+01
2.559112600490403865e-06 1.243887389177658775e+01 1.782704291078845017e+03 1.056135180242694230e-17 1.056135180242694230e-17 1.243887389177658598e+01
2.690321109267247066e-06 1.305505460266678597e+01 1.782703243390765465e+03 1.287838218827371626e-17 1.287838218827371626e-17 1.305505460266678419e+01
2.828256822142941847e-06 1.370175886993166259e+01 1.782702195703301868e+03 1.570374047658687040e-17 1.570374047658687040e-17 1.370175886993166081e+01
2.973264650247182283e-06 1.438049872969518717e+01 1.782701148016453999e+03 1.914894754253674103e-17 1.914894754253674103e-17 1.438049872969518717e+01
3.125707188681433154e-06 1.509286111935468888e+01 1.782700100330221630e+03 2.334999056648446889e-17 2.334999056648446889e-17 1.509286111935469066e+01
3.285965623195552260e-06 1.584051158794246383e+01 1.782699052644604990e+03 2.847269063972200535e-17 2.847269063972200535e-17 1.584051158794246383e+01
3.454440683350715895e-06 1.662519819028639745e+01 1.782698004959604077e+03 3.471924795673998094e-17 3.471924795673998094e-17 1.662519819028640100e+01
3.631553644552051256e-06 1.744875557407445754e+01 1.782696957275218892e+03 4.233622294199034994e-17 4.233622294199034994e-17 1.744875557407445754e+01
3.817747381456583501e-06 1.831310926937885597e+01 1.782695909591449663e+03 5.162426833747023387e-17 5.162426833747023387e-17 1.831310926937885597e+01
4.013487475390560301e-06 1.922028019066907234e+01 1.782694861908295934e+03 6.294999639034497952e-17 6.294999639034497952e-17 1.922028019066907234e+01
4.219263378545278646e-06 2.017238936183968789e+01 1.782693814225757706e+03 7.676044955523783706e-17 7.676044955523783706e-17 2.017238936183969145e+01
4.435589637862505628e-06 2.117166287530055868e+01 1.782692766543835660e+03 9.360074589020832735e-17 9.360074589020832735e-17 2.117166287530055868e+01
4.663007181669850359e-06 2.222043709672383471e+01 1.782691718862528887e+03 1.141355956350769300e-16 1.141355956350769300e-16 2.222043709672383471e+01
4.902084672283341335e-06 2.332116412761704183e+01 1.782690671181838070e+03 1.391755382617796706e-16 1.391755382617796706e-16 2.332116412761704538e+01
5.153419927959414359e-06 2.447641753849390156e+01 1.782689623501762981e+03 1.697089356101210183e-16 1.697089356101210183e-16 2.447641753849390511e+01
5.417641417751947798e-06 2.568889838604756903e+01 1.782688575822303619e+03 2.069409839231033590e-16 2.069409839231033590e-16 2.568889838604757614e+01
5.695409833012251610e-06 2.696144152839469044e+01 1.782687528143459986e+03 2.523412846418688731e-16 2.523412846418688731e-16 2.696144152839469399e+01
5.987419739461582321e-06 2.829702225315578445e+01 1.782686480465232080e+03 3.077018516466024455e-16 3.077018516466024455e-16 2.829702225315578445e+01
6.294401313967230556e-06 2.969876323386886341e+01 1.782685432787619675e+03 3.752078445709798017e-16 3.752078445709798017e-16 2.969876323386886341e+01
6.617122170365021529e-06 3.116994183100080562e+01 1.782684385110623225e+03 4.575238201338103239e-16 4.575238201338103239e-16 3.116994183100080562e+01
6.956389278893736092e-06 3.271399775462662518e+01 1.782683337434242503e+03 5.578989059495413733e-16 5.578989059495413733e-16 3.271399775462662518e+01
